# 8, 1000
# Nu energy [MeV]X-Sec. [m^2]     Lep. <E> [m^2 MeV]
# Enu            nu_e             nu_e_bar         nu_x             nu_x_bar         nu_e             nu_e_bar         nu_x             nu_x_bar         
0.05             5.3822297E-50    4.4682004E-50    2.0794871E-50    2.0438164E-50    0.0000000E+00    0.0000000E+00    0.0000000E+00    0.0000000E+00    
0.15             3.8642097E-49    2.5653064E-49    1.2278646E-49    1.1771738E-49    0.0000000E+00    0.0000000E+00    0.0000000E+00    0.0000000E+00    
0.25             8.9133559E-49    5.2271782E-49    2.5043680E-49    2.3605119E-49    0.0000000E+00    0.0000000E+00    0.0000000E+00    0.0000000E+00    
0.35             1.4926211E-48    8.1113322E-49    3.8534561E-49    3.5875000E-49    1.3931866E-50    -1.3410948E-51   5.0115961E-51    4.4155564E-51    
0.45             2.1530077E-48    1.1124503E-48    5.2251800E-49    4.8190941E-49    7.1462050E-52    1.3006066E-53    2.0994754E-52    1.8256647E-52    
0.55             2.8521795E-48    1.4225167E-48    6.6032923E-49    6.0453548E-49    3.5789856E-50    2.7581256E-51    9.3166558E-51    8.0275658E-51    
0.65             3.5781497E-48    1.7389698E-48    7.9820061E-49    7.2642512E-49    1.3080855E-49    1.4762393E-50    3.1382841E-50    2.6854046E-50    
0.75             4.3233996E-48    2.0602808E-48    9.3592380E-49    8.4760376E-49    2.9226298E-49    4.0011098E-50    6.6078082E-50    5.6233748E-50    
0.85             5.0829779E-48    2.3853895E-48    1.0734324E-48    9.6815684E-49    5.2418550E-49    8.0814726E-50    1.1325521E-49    9.5952311E-50    
0.95             5.8534926E-48    2.7135280E-48    1.2107164E-48    1.0881768E-48    8.2925431E-49    1.3863869E-49    1.7283463E-49    1.4588280E-49    
1.05             6.6325431E-48    3.0441238E-48    1.3477879E-48    1.2077469E-48    1.2093330E-48    2.1447271E-49    2.4476666E-49    2.0594144E-49    
1.15             7.4183826E-48    3.3767401E-48    1.4846664E-48    1.3269380E-48    1.6657643E-48    3.0901676E-49    3.2901714E-49    2.7606897E-49    
1.25             8.2097101E-48    3.7110379E-48    1.6213731E-48    1.4458088E-48    2.1995429E-48    4.2278351E-49    4.2556101E-49    3.5622153E-49    
1.35             9.0055370E-48    4.0467496E-48    1.7579281E-48    1.5644074E-48    2.8114227E-48    5.5615901E-49    5.3437909E-49    4.4636559E-49    
1.45             9.8050985E-48    4.3836614E-48    1.8943495E-48    1.6827735E-48    3.5019859E-48    7.0944055E-49    6.5545627E-49    5.4647493E-49    
1.55             1.0607793E-47    4.7216003E-48    2.0306534E-48    1.8009400E-48    4.2716896E-48    8.8286134E-49    7.8878041E-49    6.5652865E-49    
1.65             1.1413144E-47    5.0604249E-48    2.1668537E-48    1.9189337E-48    5.1208980E-48    1.0766073E-48    9.3434160E-49    7.7650988E-49    
1.75             1.2220763E-47    5.4000186E-48    2.3029624E-48    2.0367773E-48    6.0499049E-48    1.2908286E-48    1.0921316E-48    9.0640481E-49    
1.85             1.3030336E-47    5.7402843E-48    2.4389900E-48    2.1544898E-48    7.0589500E-48    1.5256480E-48    1.2621436E-48    1.0462020E-48    
1.95             1.3841606E-47    6.0811404E-48    2.5749454E-48    2.2720869E-48    8.1482309E-48    1.7811670E-48    1.4443718E-48    1.1958920E-48    
2.04             1.4654355E-47    6.4225181E-48    2.7108364E-48    2.3895823E-48    9.3179116E-48    2.0574701E-48    1.6388114E-48    1.3554668E-48    
2.15             1.5468405E-47    6.7643588E-48    2.8466699E-48    2.5069874E-48    1.0568130E-47    2.3546287E-48    1.8454580E-48    1.5249195E-48    
2.25             1.6283602E-47    7.1066123E-48    2.9824516E-48    2.6243122E-48    1.1899003E-47    2.6727028E-48    2.0643082E-48    1.7042444E-48    
2.35             1.7099818E-47    7.4492355E-48    3.1181867E-48    2.7415649E-48    1.3310628E-47    3.0117440E-48    2.2953588E-48    1.8934365E-48    
2.45             1.7916942E-47    7.7921909E-48    3.2538797E-48    2.8587531E-48    1.4803091E-47    3.3717964E-48    2.5386070E-48    2.0924915E-48    
2.54             1.8734878E-47    8.1354460E-48    3.3895346E-48    2.9758832E-48    1.6376465E-47    3.7528983E-48    2.7940506E-48    2.3014057E-48    
2.65             1.9553545E-47    8.4789725E-48    3.5251548E-48    3.0929606E-48    1.8030812E-47    4.1550826E-48    3.0616875E-48    2.5201759E-48    
2.75             2.0372871E-47    8.8227454E-48    3.6607434E-48    3.2099904E-48    1.9766189E-47    4.5783784E-48    3.3415158E-48    2.7487992E-48    
2.85             2.1192794E-47    9.1667426E-48    3.7963032E-48    3.3269768E-48    2.1582642E-47    5.0228109E-48    3.6335339E-48    2.9872731E-48    
2.95             2.2013258E-47    9.5109447E-48    3.9318365E-48    3.4439236E-48    2.3480215E-47    5.4884025E-48    3.9377404E-48    3.2355954E-48    
3.05             2.2834215E-47    9.8553346E-48    4.0673455E-48    3.5608342E-48    2.5458943E-47    5.9751729E-48    4.2541340E-48    3.4937641E-48    
3.15             2.3655623E-47    1.0199897E-47    4.2028323E-48    3.6777116E-48    2.7518861E-47    6.4831396E-48    4.5827136E-48    3.7617775E-48    
3.25             2.4477444E-47    1.0544617E-47    4.3382984E-48    3.7945586E-48    2.9659998E-47    7.0123182E-48    4.9234782E-48    4.0396341E-48    
3.35             2.5299643E-47    1.0889484E-47    4.4737455E-48    3.9113774E-48    3.1882379E-47    7.5627225E-48    5.2764267E-48    4.3273325E-48    
3.45             2.6122191E-47    1.1234486E-47    4.6091751E-48    4.0281704E-48    3.4186028E-47    8.1343651E-48    5.6415585E-48    4.6248713E-48    
3.55             2.6945060E-47    1.1579613E-47    4.7445883E-48    4.1449393E-48    3.6570965E-47    8.7272572E-48    6.0188728E-48    4.9322495E-48    
3.65             2.7768226E-47    1.1924856E-47    4.8799864E-48    4.2616860E-48    3.9037211E-47    9.3414089E-48    6.4083688E-48    5.2494661E-48    
3.75             2.8591668E-47    1.2270207E-47    5.0153703E-48    4.3784121E-48    4.1584781E-47    9.9768293E-48    6.8100461E-48    5.5765202E-48    
3.85             2.9415365E-47    1.2615659E-47    5.1507411E-48    4.4951190E-48    4.4213691E-47    1.0633527E-47    7.2239039E-48    5.9134108E-48    
3.95             3.0239300E-47    1.2961204E-47    5.2860996E-48    4.6118079E-48    4.6923955E-47    1.1311509E-47    7.6499419E-48    6.2601373E-48    
4.05             3.1063455E-47    1.3306837E-47    5.4214467E-48    4.7284802E-48    4.9715586E-47    1.2010782E-47    8.0881595E-48    6.6166990E-48    
4.15             3.1887817E-47    1.3652551E-47    5.5567829E-48    4.8451369E-48    5.2588595E-47    1.2731353E-47    8.5385563E-48    6.9830952E-48    
4.25             3.2712371E-47    1.3998343E-47    5.6921092E-48    4.9617790E-48    5.5542992E-47    1.3473227E-47    9.0011319E-48    7.3593253E-48    
4.34             3.3537106E-47    1.4344206E-47    5.8274259E-48    5.0784074E-48    5.8578788E-47    1.4236410E-47    9.4758861E-48    7.7453889E-48    
4.45             3.4362010E-47    1.4690137E-47    5.9627338E-48    5.1950230E-48    6.1695991E-47    1.5020906E-47    9.9628184E-48    8.1412854E-48    
4.55             3.5187072E-47    1.5036131E-47    6.0980333E-48    5.3116265E-48    6.4894608E-47    1.5826720E-47    1.0461928E-47    8.5470144E-48    
4.65             3.6012282E-47    1.5382186E-47    6.2333248E-48    5.4282186E-48    6.8174649E-47    1.6653856E-47    1.0973216E-47    8.9625755E-48    
4.75             3.6837633E-47    1.5728297E-47    6.3686090E-48    5.5448000E-48    7.1536119E-47    1.7502317E-47    1.1496681E-47    9.3879683E-48    
4.85             3.7663116E-47    1.6074461E-47    6.5038861E-48    5.6613714E-48    7.4979025E-47    1.8372108E-47    1.2032323E-47    9.8231924E-48    
4.95             3.8488723E-47    1.6420675E-47    6.6391566E-48    5.7779332E-48    7.8503373E-47    1.9263230E-47    1.2580142E-47    1.0268248E-47    
5.05             3.9314448E-47    1.6766937E-47    6.7744208E-48    5.8944860E-48    8.2109167E-47    2.0175688E-47    1.3140137E-47    1.0723133E-47    
5.15             4.0140284E-47    1.7113245E-47    6.9096791E-48    6.0110302E-48    8.5796414E-47    2.1109484E-47    1.3712309E-47    1.1187850E-47    
5.25             4.0966225E-47    1.7459595E-47    7.0449317E-48    6.1275664E-48    8.9565117E-47    2.2064621E-47    1.4296658E-47    1.1662396E-47    
5.35             4.1792265E-47    1.7805985E-47    7.1801789E-48    6.2440949E-48    9.3415282E-47    2.3041100E-47    1.4893182E-47    1.2146772E-47    
5.45             4.2618399E-47    1.8152414E-47    7.3154210E-48    6.3606162E-48    9.7346912E-47    2.4038924E-47    1.5501882E-47    1.2640979E-47    
5.55             4.3444623E-47    1.8498880E-47    7.4506583E-48    6.4771305E-48    1.0136001E-46    2.5058096E-47    1.6122758E-47    1.3145014E-47    
5.65             4.4270932E-47    1.8845381E-47    7.5858911E-48    6.5936383E-48    1.0545458E-46    2.6098617E-47    1.6755810E-47    1.3658879E-47    
5.75             4.5097321E-47    1.9191914E-47    7.7211194E-48    6.7101399E-48    1.0963063E-46    2.7160489E-47    1.7401037E-47    1.4182573E-47    
5.85             4.5923788E-47    1.9538480E-47    7.8563435E-48    6.8266355E-48    1.1388815E-46    2.8243714E-47    1.8058440E-47    1.4716096E-47    
5.95             4.6750327E-47    1.9885075E-47    7.9915637E-48    6.9431255E-48    1.1822716E-46    2.9348292E-47    1.8728017E-47    1.5259448E-47    
6.05             4.7576936E-47    2.0231699E-47    8.1267800E-48    7.0596100E-48    1.2264765E-46    3.0474227E-47    1.9409770E-47    1.5812628E-47    
6.15             4.8403612E-47    2.0578351E-47    8.2619927E-48    7.1760894E-48    1.2714963E-46    3.1621519E-47    2.0103699E-47    1.6375637E-47    
6.25             4.9230351E-47    2.0925029E-47    8.3972020E-48    7.2925639E-48    1.3173310E-46    3.2790169E-47    2.0809802E-47    1.6948474E-47    
6.35             5.0057150E-47    2.1271732E-47    8.5324079E-48    7.4090337E-48    1.3639806E-46    3.3980179E-47    2.1528080E-47    1.7531139E-47    
6.45             5.0884007E-47    2.1618458E-47    8.6676107E-48    7.5254989E-48    1.4114451E-46    3.5191550E-47    2.2258533E-47    1.8123633E-47    
6.55             5.1710920E-47    2.1965208E-47    8.8028104E-48    7.6419599E-48    1.4597246E-46    3.6424283E-47    2.3001160E-47    1.8725954E-47    
6.65             5.2537886E-47    2.2311980E-47    8.9380072E-48    7.7584167E-48    1.5088190E-46    3.7678379E-47    2.3755963E-47    1.9338103E-47    
6.75             5.3364902E-47    2.2658773E-47    9.0732012E-48    7.8748696E-48    1.5587285E-46    3.8953839E-47    2.4522939E-47    1.9960080E-47    
6.85             5.4191967E-47    2.3005586E-47    9.2083925E-48    7.9913187E-48    1.6094530E-46    4.0250663E-47    2.5302091E-47    2.0591885E-47    
6.95             5.5019078E-47    2.3352419E-47    9.3435812E-48    8.1077642E-48    1.6609924E-46    4.1568854E-47    2.6093417E-47    2.1233518E-47    
7.05             5.5846235E-47    2.3699270E-47    9.4787675E-48    8.2242062E-48    1.7133470E-46    4.2908411E-47    2.6896917E-47    2.1884977E-47    
7.15             5.6673434E-47    2.4046139E-47    9.6139514E-48    8.3406448E-48    1.7665165E-46    4.4269336E-47    2.7712592E-47    2.2546265E-47    
7.25             5.7500674E-47    2.4393025E-47    9.7491330E-48    8.4570802E-48    1.8205012E-46    4.5651629E-47    2.8540441E-47    2.3217379E-47    
7.35             5.8327953E-47    2.4739928E-47    9.8843124E-48    8.5735126E-48    1.8753009E-46    4.7055290E-47    2.9380464E-47    2.3898321E-47    
7.45             5.9155271E-47    2.5086847E-47    1.0019490E-47    8.6899419E-48    1.9309157E-46    4.8480322E-47    3.0232661E-47    2.4589090E-47    
7.55             5.9982625E-47    2.5433781E-47    1.0154665E-47    8.8063684E-48    1.9873456E-46    4.9926723E-47    3.1097033E-47    2.5289687E-47    
7.65             6.0810015E-47    2.5780730E-47    1.0289838E-47    8.9227921E-48    2.0445906E-46    5.1394495E-47    3.1973579E-47    2.6000110E-47    
7.75             6.1637438E-47    2.6127693E-47    1.0425010E-47    9.0392132E-48    2.1026508E-46    5.2883639E-47    3.2862298E-47    2.6720360E-47    
7.85             6.2464894E-47    2.6474670E-47    1.0560179E-47    9.1556317E-48    2.1615260E-46    5.4394154E-47    3.3763192E-47    2.7450438E-47    
7.95             6.3292382E-47    2.6821660E-47    1.0695347E-47    9.2720477E-48    2.2212165E-46    5.5926042E-47    3.4676260E-47    2.8190342E-47    
8.05             6.4119900E-47    2.7168663E-47    1.0830513E-47    9.3884614E-48    2.2817220E-46    5.7479303E-47    3.5601502E-47    2.8940073E-47    
8.15             6.4947447E-47    2.7515678E-47    1.0965678E-47    9.5048728E-48    2.3430428E-46    5.9053937E-47    3.6538917E-47    2.9699631E-47    
8.25             6.5775022E-47    2.7862705E-47    1.1100841E-47    9.6212819E-48    2.4051787E-46    6.0649946E-47    3.7488507E-47    3.0469016E-47    
8.35             6.6602625E-47    2.8209744E-47    1.1236002E-47    9.7376889E-48    2.4681297E-46    6.2267328E-47    3.8450270E-47    3.1248227E-47    
8.45             6.7430254E-47    2.8556793E-47    1.1371162E-47    9.8540939E-48    2.5318960E-46    6.3906085E-47    3.9424208E-47    3.2037265E-47    
8.55             6.8257908E-47    2.8903854E-47    1.1506321E-47    9.9704968E-48    2.5964775E-46    6.5566217E-47    4.0410319E-47    3.2836130E-47    
8.65             6.9085587E-47    2.9250925E-47    1.1641478E-47    1.0086898E-47    2.6618741E-46    6.7247725E-47    4.1408603E-47    3.3644821E-47    
8.75             6.9913289E-47    2.9598006E-47    1.1776634E-47    1.0203297E-47    2.7280859E-46    6.8950608E-47    4.2419062E-47    3.4463339E-47    
8.85             7.0741015E-47    2.9945096E-47    1.1911788E-47    1.0319694E-47    2.7951130E-46    7.0674868E-47    4.3441694E-47    3.5291684E-47    
8.95             7.1568763E-47    3.0292196E-47    1.2046941E-47    1.0436090E-47    2.8629553E-46    7.2420504E-47    4.4476500E-47    3.6129855E-47    
9.05             7.2396532E-47    3.0639305E-47    1.2182093E-47    1.0552484E-47    2.9316128E-46    7.4187517E-47    4.5523480E-47    3.6977852E-47    
9.15             7.3224323E-47    3.0986423E-47    1.2317244E-47    1.0668876E-47    3.0010855E-46    7.5975907E-47    4.6582633E-47    3.7835676E-47    
9.25             7.4052133E-47    3.1333550E-47    1.2452394E-47    1.0785267E-47    3.0713734E-46    7.7785674E-47    4.7653960E-47    3.8703326E-47    
9.35             7.4879963E-47    3.1680685E-47    1.2587543E-47    1.0901656E-47    3.1424766E-46    7.9616820E-47    4.8737461E-47    3.9580803E-47    
9.45             7.5707812E-47    3.2027828E-47    1.2722690E-47    1.1018043E-47    3.2143950E-46    8.1469343E-47    4.9833135E-47    4.0468106E-47    
9.55             7.6535679E-47    3.2374979E-47    1.2857837E-47    1.1134429E-47    3.2871287E-46    8.3343244E-47    5.0940983E-47    4.1365235E-47    
9.65             7.7363564E-47    3.2722137E-47    1.2992982E-47    1.1250814E-47    3.3606776E-46    8.5238524E-47    5.2061004E-47    4.2272190E-47    
9.75             7.8191467E-47    3.3069303E-47    1.3128127E-47    1.1367198E-47    3.4350418E-46    8.7155182E-47    5.3193199E-47    4.3188972E-47    
9.85             7.9019386E-47    3.3416476E-47    1.3263270E-47    1.1483580E-47    3.5102212E-46    8.9093219E-47    5.4337568E-47    4.4115580E-47    
9.95             7.9847322E-47    3.3763656E-47    1.3398413E-47    1.1599960E-47    3.5862159E-46    9.1052636E-47    5.5494110E-47    4.5052015E-47    
10.05            8.0675273E-47    3.4110842E-47    1.3533555E-47    1.1716340E-47    3.6630258E-46    9.3033432E-47    5.6662825E-47    4.5998275E-47    
10.15            8.1503240E-47    3.4458035E-47    1.3668695E-47    1.1832718E-47    3.7406511E-46    9.5035607E-47    5.7843714E-47    4.6954362E-47    
10.25            8.2331222E-47    3.4805235E-47    1.3803835E-47    1.1949095E-47    3.8190916E-46    9.7059162E-47    5.9036776E-47    4.7920275E-47    
10.35            8.3159218E-47    3.5152440E-47    1.3938975E-47    1.2065471E-47    3.8983473E-46    9.9104097E-47    6.0242012E-47    4.8896014E-47    
10.45            8.3987228E-47    3.5499652E-47    1.4074113E-47    1.2181846E-47    3.9784184E-46    1.0117041E-46    6.1459421E-47    4.9881579E-47    
10.55            8.4815252E-47    3.5846870E-47    1.4209251E-47    1.2298220E-47    4.0593047E-46    1.0325811E-46    6.2689004E-47    5.0876970E-47    
10.65            8.5643289E-47    3.6194093E-47    1.4344388E-47    1.2414593E-47    4.1410063E-46    1.0536718E-46    6.3930760E-47    5.1882187E-47    
10.75            8.6471340E-47    3.6541322E-47    1.4479524E-47    1.2530964E-47    4.2235232E-46    1.0749764E-46    6.5184690E-47    5.2897231E-47    
10.85            8.7299403E-47    3.6888556E-47    1.4614659E-47    1.2647335E-47    4.3068554E-46    1.0964948E-46    6.6450792E-47    5.3922100E-47    
10.95            8.8127478E-47    3.7235796E-47    1.4749794E-47    1.2763705E-47    4.3910029E-46    1.1182270E-46    6.7729069E-47    5.4956796E-47    
11.05            8.8955565E-47    3.7583040E-47    1.4884928E-47    1.2880074E-47    4.4759657E-46    1.1401729E-46    6.9019518E-47    5.6001317E-47    
11.15            8.9783664E-47    3.7930290E-47    1.5020061E-47    1.2996441E-47    4.5617438E-46    1.1623328E-46    7.0322141E-47    5.7055665E-47    
11.25            9.0611775E-47    3.8277545E-47    1.5155194E-47    1.3112808E-47    4.6483371E-46    1.1847064E-46    7.1636938E-47    5.8119838E-47    
11.35            9.1439896E-47    3.8624804E-47    1.5290326E-47    1.3229174E-47    4.7357458E-46    1.2072938E-46    7.2963907E-47    5.9193838E-47    
11.45            9.2268028E-47    3.8972068E-47    1.5425458E-47    1.3345540E-47    4.8239698E-46    1.2300951E-46    7.4303050E-47    6.0277663E-47    
11.55            9.3096171E-47    3.9319336E-47    1.5560588E-47    1.3461904E-47    4.9130091E-46    1.2531101E-46    7.5654367E-47    6.1371315E-47    
11.65            9.3924324E-47    3.9666609E-47    1.5695719E-47    1.3578267E-47    5.0028637E-46    1.2763390E-46    7.7017856E-47    6.2474792E-47    
11.75            9.4752486E-47    4.0013886E-47    1.5830848E-47    1.3694630E-47    5.0935336E-46    1.2997817E-46    7.8393519E-47    6.3588095E-47    
11.85            9.5580659E-47    4.0361167E-47    1.5965978E-47    1.3810992E-47    5.1850188E-46    1.3234382E-46    7.9781356E-47    6.4711225E-47    
11.95            9.6408841E-47    4.0708453E-47    1.6101106E-47    1.3927353E-47    5.2773194E-46    1.3473086E-46    8.1181365E-47    6.5844180E-47    
12.05            9.7237033E-47    4.1055742E-47    1.6236234E-47    1.4043714E-47    5.3704352E-46    1.3713927E-46    8.2593548E-47    6.6986961E-47    
12.15            9.8065233E-47    4.1403035E-47    1.6371362E-47    1.4160074E-47    5.4643664E-46    1.3956907E-46    8.4017904E-47    6.8139568E-47    
12.25            9.8893442E-47    4.1750332E-47    1.6506489E-47    1.4276433E-47    5.5591129E-46    1.4202026E-46    8.5454433E-47    6.9302001E-47    
12.35            9.9721660E-47    4.2097633E-47    1.6641616E-47    1.4392791E-47    5.6546747E-46    1.4449282E-46    8.6903136E-47    7.0474260E-47    
12.45            1.0054989E-46    4.2444938E-47    1.6776742E-47    1.4509149E-47    5.7510518E-46    1.4698677E-46    8.8364012E-47    7.1656344E-47    
12.55            1.0137812E-46    4.2792245E-47    1.6911867E-47    1.4625506E-47    5.8482443E-46    1.4950210E-46    8.9837061E-47    7.2848255E-47    
12.65            1.0220636E-46    4.3139557E-47    1.7046992E-47    1.4741862E-47    5.9462521E-46    1.5203881E-46    9.1322283E-47    7.4049991E-47    
12.75            1.0303461E-46    4.3486872E-47    1.7182117E-47    1.4858218E-47    6.0450752E-46    1.5459690E-46    9.2819679E-47    7.5261553E-47    
